,Date,Open,High,Low,Close,Adj Close,Volume,ticker
0,2018-01-02,86.440002,87.32,86.080002,87.010002,82.237534,233300,ATR
1,2018-01-03,87.260002,87.610001,86.82,87.190002,82.407669,177700,ATR
2,2018-01-04,87.209999,87.93,85.800003,86.010002,81.292381,362900,ATR
3,2018-01-05,86.290001,87.449997,86.190002,86.910004,82.143036,209200,ATR
4,2018-01-08,86.860001,87.510002,86.57,87.199997,82.417122,341200,ATR
5,2018-01-09,87.279999,87.760002,86.360001,86.389999,81.65155,282000,ATR
6,2018-01-10,86.099998,86.099998,85.160004,85.669998,80.971046,161400,ATR
7,2018-01-11,85.440002,86.489998,85.440002,86.25,81.519234,311600,ATR
8,2018-01-12,86.370003,86.940002,85.879997,86.559998,81.812218,179400,ATR
9,2018-01-16,86.360001,87.209999,86.010002,86.239998,81.509766,254000,ATR
10,2018-01-17,86.769997,87.279999,86.510002,86.839996,82.076851,250400,ATR
11,2018-01-18,86.849998,87.32,86.349998,87.239998,82.454926,220800,ATR
12,2018-01-19,87.300003,88.699997,87.300003,88.610001,83.749771,177500,ATR
13,2018-01-22,88.610001,88.610001,86.599998,87.459999,82.662857,369900,ATR
14,2018-01-23,87.440002,87.75,86.910004,87.599998,82.795181,158800,ATR
15,2018-01-24,87.809998,88.599998,86.349998,88.199997,83.362251,255000,ATR
16,2018-01-25,88.400002,89.43,88.129997,89.43,84.524796,339100,ATR
17,2018-01-26,89.480003,89.5,88.459999,89.139999,84.25071,206300,ATR
18,2018-01-29,88.730003,89.230003,87.540001,87.730003,82.91806,254300,ATR
19,2018-01-30,87.449997,87.959999,87.050003,87.690002,83.18367,345000,ATR
20,2018-01-31,88.089996,88.099998,86.760002,87.419998,82.927536,519100,ATR
21,2018-02-01,87.239998,87.629997,85.809998,86.839996,82.377327,220800,ATR
22,2018-02-02,86.529999,86.910004,85.540001,85.800003,81.390793,217000,ATR
23,2018-02-05,85.099998,86.0,83.379997,83.379997,79.095131,434200,ATR
24,2018-02-06,82.379997,83.889999,81.410004,83.790001,79.484085,352300,ATR
25,2018-02-07,83.809998,84.910004,83.730003,83.849998,79.54097,304100,ATR
26,2018-02-08,83.860001,84.82,81.360001,81.379997,77.197899,349100,ATR
27,2018-02-09,82.089996,82.589996,79.970001,82.160004,77.937836,367200,ATR
28,2018-02-12,82.559998,83.449997,81.589996,82.599998,78.355225,303000,ATR
29,2018-02-13,86.75,92.32,86.300003,89.720001,85.109329,1102000,ATR
30,2018-02-14,89.580002,90.870003,88.739998,90.660004,86.00103,512100,ATR
31,2018-02-15,90.18,91.970001,90.18,91.169998,86.484818,333300,ATR
32,2018-02-16,91.040001,92.139999,90.489998,91.830002,87.110916,335500,ATR
33,2018-02-20,91.239998,92.190002,90.720001,91.059998,86.380478,372000,ATR
34,2018-02-21,91.339996,92.279999,90.110001,90.160004,85.526718,283200,ATR
35,2018-02-22,90.440002,91.459999,90.309998,90.610001,85.95359,255300,ATR
36,2018-02-23,90.739998,91.07,89.93,90.989998,86.314056,249400,ATR
37,2018-02-26,91.279999,91.480003,90.389999,90.779999,86.114861,250300,ATR
38,2018-02-27,90.730003,90.730003,89.440002,89.5,84.900627,286500,ATR
39,2018-02-28,89.730003,90.410004,89.209999,89.419998,84.824745,306900,ATR
40,2018-03-01,89.239998,90.489998,88.309998,89.0,84.426323,241900,ATR
41,2018-03-02,88.739998,89.889999,88.300003,89.68,85.071381,270600,ATR
42,2018-03-05,89.309998,90.699997,89.309998,90.400002,85.754395,231200,ATR
43,2018-03-06,90.370003,91.050003,89.279999,90.769997,86.10537,295800,ATR
44,2018-03-07,89.980003,91.139999,89.709999,90.139999,85.507744,317500,ATR
45,2018-03-08,90.400002,90.830002,89.449997,89.949997,85.327499,368000,ATR
46,2018-03-09,89.940002,90.949997,89.559998,90.870003,86.200226,283100,ATR
47,2018-03-12,90.699997,90.989998,90.400002,90.779999,86.114861,181100,ATR
48,2018-03-13,91.269997,92.099998,90.269997,90.5,85.849251,257500,ATR
49,2018-03-14,90.959999,91.269997,89.43,90.07,85.441338,266900,ATR
50,2018-03-15,90.139999,90.57,89.800003,90.279999,85.640556,239600,ATR
51,2018-03-16,90.349998,91.129997,89.760002,90.150002,85.517235,424800,ATR
52,2018-03-19,90.059998,90.360001,89.449997,89.959999,85.337006,155000,ATR
53,2018-03-20,90.019997,90.489998,89.669998,89.779999,85.166252,247700,ATR
54,2018-03-21,89.709999,90.339996,89.389999,89.589996,84.986008,266300,ATR
55,2018-03-22,89.220001,89.910004,87.93,87.959999,83.439774,260900,ATR
56,2018-03-23,87.940002,87.940002,86.690002,86.769997,82.310913,215900,ATR
57,2018-03-26,87.660004,88.550003,87.07,88.209999,83.676918,278900,ATR
58,2018-03-27,88.519997,89.129997,87.620003,88.080002,83.553635,253200,ATR
59,2018-03-28,88.080002,88.900002,87.82,88.360001,83.819221,194000,ATR
60,2018-03-29,88.879997,90.339996,88.360001,89.830002,85.213684,287300,ATR
61,2018-04-02,89.370003,89.739998,87.169998,87.93,83.411324,184400,ATR
62,2018-04-03,88.43,90.169998,87.690002,89.559998,84.957535,336600,ATR
63,2018-04-04,88.919998,89.949997,86.849998,89.709999,85.099838,276500,ATR
64,2018-04-05,90.300003,90.849998,89.279999,90.400002,85.754395,276400,ATR
65,2018-04-06,89.690002,90.360001,88.230003,88.5,83.952019,362200,ATR
66,2018-04-09,89.150002,90.339996,88.599998,89.900002,85.28009,471500,ATR
67,2018-04-10,90.75,93.099998,90.099998,92.720001,87.955162,455600,ATR
68,2018-04-11,91.970001,92.639999,91.75,92.25,87.509315,250800,ATR
69,2018-04-12,92.760002,93.25,92.480003,92.699997,87.936195,221500,ATR
70,2018-04-13,93.199997,93.330002,92.459999,92.75,87.98362,262600,ATR
71,2018-04-16,93.029999,94.660004,92.959999,94.309998,89.463463,196900,ATR
72,2018-04-17,94.279999,96.389999,93.790001,96.129997,91.189919,507200,ATR
73,2018-04-18,96.150002,96.199997,95.18,95.610001,90.696648,346800,ATR
74,2018-04-19,95.050003,95.879997,94.540001,94.800003,89.928276,165000,ATR
75,2018-04-20,95.110001,95.139999,94.120003,94.440002,89.586777,217800,ATR
76,2018-04-23,94.709999,95.43,94.099998,94.349998,89.501389,189500,ATR
77,2018-04-24,94.599998,94.699997,92.769997,93.18,88.391541,401900,ATR
78,2018-04-25,93.019997,93.949997,92.370003,93.150002,88.363052,298700,ATR
79,2018-04-26,93.18,93.699997,92.599998,93.279999,88.486374,417000,ATR
80,2018-04-27,93.75,94.739998,91.879997,93.459999,88.65712,407500,ATR
81,2018-04-30,93.730003,93.989998,93.050003,93.5,88.695091,907800,ATR
82,2018-05-01,93.449997,93.870003,92.730003,93.540001,88.733032,427800,ATR
83,2018-05-02,94.0,94.0,92.470001,92.559998,87.803391,631100,ATR
84,2018-05-03,92.25,92.830002,90.980003,91.120003,86.437393,560200,ATR
85,2018-05-04,90.839996,92.769997,90.839996,92.260002,87.518806,339900,ATR
86,2018-05-07,92.370003,93.290001,92.300003,92.800003,88.031052,215100,ATR
87,2018-05-08,92.769997,92.790001,91.550003,91.760002,87.345695,284600,ATR
88,2018-05-09,92.0,93.059998,91.370003,92.959999,88.487953,255500,ATR
89,2018-05-10,93.099998,93.940002,93.050003,93.790001,89.278038,377900,ATR
90,2018-05-11,93.75,94.32,93.150002,94.290001,89.753967,492900,ATR
91,2018-05-14,94.190002,94.709999,92.290001,93.370003,88.878235,477500,ATR
92,2018-05-15,93.169998,93.169998,91.589996,92.099998,87.669327,406400,ATR
93,2018-05-16,92.32,93.769997,91.919998,93.540001,89.040062,257600,ATR
94,2018-05-17,93.669998,93.919998,93.050003,93.290001,88.802094,242600,ATR
95,2018-05-18,92.559998,94.279999,92.379997,93.559998,89.05909,272300,ATR
96,2018-05-21,94.019997,94.410004,93.839996,94.010002,89.48745,162300,ATR
97,2018-05-22,94.279999,94.949997,93.669998,93.959999,89.43985,165300,ATR
98,2018-05-23,93.629997,94.269997,93.360001,94.089996,89.563599,165800,ATR
99,2018-05-24,94.120003,94.480003,93.580002,94.029999,89.506493,116200,ATR
100,2018-05-25,93.879997,94.419998,93.849998,94.080002,89.554077,154900,ATR
101,2018-05-29,93.459999,94.010002,93.059998,93.309998,88.821106,212700,ATR
102,2018-05-30,92.699997,94.410004,92.699997,93.959999,89.43985,258600,ATR
103,2018-05-31,94.25,94.389999,92.190002,92.32,87.878738,151900,ATR
104,2018-06-01,92.879997,93.290001,92.470001,92.769997,88.307091,174800,ATR
105,2018-06-04,93.110001,93.900002,92.440002,93.860001,89.344666,172100,ATR
106,2018-06-05,94.059998,94.5,93.559998,93.919998,89.401764,114800,ATR
107,2018-06-06,93.669998,94.099998,92.040001,93.910004,89.392273,437300,ATR
108,2018-06-07,93.830002,94.43,92.440002,93.239998,88.754478,534000,ATR
109,2018-06-08,93.050003,93.900002,92.980003,93.660004,89.154274,290600,ATR
110,2018-06-11,93.790001,94.860001,93.43,93.82,89.306572,389400,ATR
111,2018-06-12,94.089996,94.889999,93.599998,94.150002,89.620705,455100,ATR
112,2018-06-13,94.550003,95.0,94.050003,94.32,89.782524,321400,ATR
113,2018-06-14,94.809998,95.260002,94.260002,94.860001,90.296555,320400,ATR
114,2018-06-15,95.0,95.370003,94.389999,94.919998,90.353653,505200,ATR
115,2018-06-18,94.57,95.080002,94.019997,94.839996,90.277512,347300,ATR
116,2018-06-19,93.949997,94.620003,93.610001,94.25,89.715889,333700,ATR
117,2018-06-20,94.169998,94.870003,93.940002,94.639999,90.087143,285600,ATR
118,2018-06-21,94.510002,94.610001,92.949997,93.099998,88.621223,296900,ATR
119,2018-06-22,93.279999,93.489998,92.339996,92.629997,88.173828,681100,ATR
120,2018-06-25,92.769997,93.199997,91.419998,92.18,87.745483,348700,ATR
121,2018-06-26,92.349998,93.449997,92.019997,92.709999,88.249985,266700,ATR
122,2018-06-27,92.779999,93.910004,92.07,92.099998,87.669327,295800,ATR
123,2018-06-28,92.0,92.760002,91.660004,92.709999,88.249985,251300,ATR
124,2018-06-29,93.199997,94.120003,92.93,93.379997,88.887749,335800,ATR
125,2018-07-02,92.910004,93.769997,92.459999,93.589996,89.087639,237500,ATR
126,2018-07-03,93.959999,95.029999,93.610001,93.989998,89.468414,178000,ATR
127,2018-07-05,94.489998,94.540001,93.449997,94.540001,89.991959,249900,ATR
128,2018-07-06,94.220001,94.379997,93.720001,94.080002,89.554077,238000,ATR
129,2018-07-09,94.449997,95.629997,94.449997,95.099998,90.525002,188700,ATR
130,2018-07-10,95.169998,96.160004,95.169998,96.110001,91.486412,216100,ATR
131,2018-07-11,95.610001,96.370003,95.110001,95.68,91.07711,220800,ATR
132,2018-07-12,96.0,96.830002,95.589996,95.739998,91.134224,196700,ATR
133,2018-07-13,95.360001,96.190002,94.660004,94.870003,90.306068,205300,ATR
134,2018-07-16,94.769997,94.879997,93.169998,93.290001,88.802094,132000,ATR
135,2018-07-17,93.220001,94.739998,93.160004,94.639999,90.087143,155400,ATR
136,2018-07-18,94.639999,95.18,94.18,94.620003,90.068108,150000,ATR
137,2018-07-19,94.699997,96.540001,94.699997,96.330002,91.695824,213300,ATR
138,2018-07-20,95.940002,96.160004,95.330002,95.779999,91.172302,192600,ATR
139,2018-07-23,95.940002,96.330002,94.790001,95.139999,90.563087,195800,ATR
140,2018-07-24,95.339996,95.860001,94.529999,94.75,90.191849,225300,ATR
141,2018-07-25,94.57,95.0,94.050003,94.730003,90.172813,182300,ATR
142,2018-07-26,94.879997,96.379997,94.559998,96.07,91.448349,170300,ATR
143,2018-07-27,98.0,103.029999,97.150002,102.900002,97.949791,626000,ATR
144,2018-07-30,103.519997,104.099998,99.940002,102.5,97.569008,531800,ATR
145,2018-07-31,102.480003,103.480003,100.779999,102.43,97.826881,588100,ATR
146,2018-08-01,102.400002,102.68,101.410004,102.43,97.826881,301400,ATR
147,2018-08-02,101.639999,103.580002,101.309998,102.980003,98.352158,327400,ATR
148,2018-08-03,102.989998,104.5,102.849998,104.099998,99.421829,300200,ATR
149,2018-08-06,104.010002,104.949997,103.980003,104.209999,99.526886,279500,ATR
150,2018-08-07,104.160004,104.68,103.389999,103.550003,98.896553,296500,ATR
151,2018-08-08,103.339996,103.980003,102.870003,102.959999,98.333061,277900,ATR
152,2018-08-09,103.110001,104.07,103.0,103.900002,99.230827,265500,ATR
153,2018-08-10,103.370003,104.040001,102.160004,102.379997,97.779121,325600,ATR
154,2018-08-13,102.239998,103.470001,100.940002,101.400002,96.84317,227800,ATR
155,2018-08-14,101.889999,102.5,101.330002,101.980003,97.397095,176500,ATR
156,2018-08-15,101.559998,101.660004,100.059998,101.339996,96.785866,300500,ATR
157,2018-08-16,101.620003,102.160004,101.349998,101.669998,97.101021,276300,ATR
158,2018-08-17,101.68,102.989998,101.400002,102.760002,98.142067,131800,ATR
159,2018-08-20,102.919998,103.519997,102.599998,102.860001,98.237549,198600,ATR
160,2018-08-21,102.830002,103.849998,102.830002,103.290001,98.648239,209600,ATR
161,2018-08-22,103.32,103.400002,102.739998,103.18,98.543182,103300,ATR
162,2018-08-23,103.32,103.550003,102.760002,102.910004,98.285324,124400,ATR
163,2018-08-24,102.980003,104.139999,102.980003,103.800003,99.135315,127300,ATR
164,2018-08-27,103.790001,104.839996,103.790001,104.540001,99.842056,175400,ATR
165,2018-08-28,104.559998,105.190002,103.809998,103.889999,99.221268,214900,ATR
166,2018-08-29,104.199997,105.169998,103.769997,104.699997,99.994873,199700,ATR
167,2018-08-30,104.860001,105.769997,103.82,104.699997,99.994873,231900,ATR
168,2018-08-31,104.620003,105.440002,104.379997,104.709999,100.004425,153000,ATR
169,2018-09-04,105.32,106.5,104.580002,106.379997,101.599365,323600,ATR
170,2018-09-05,106.279999,108.779999,106.279999,108.18,103.318481,334100,ATR
171,2018-09-06,108.400002,109.690002,108.129997,108.949997,104.053871,228400,ATR
172,2018-09-07,108.940002,108.940002,107.790001,107.900002,103.051064,258500,ATR
173,2018-09-10,108.389999,109.080002,107.889999,108.559998,103.681404,212400,ATR
174,2018-09-11,108.260002,108.730003,107.540001,108.519997,103.643188,101600,ATR
175,2018-09-12,108.360001,109.629997,108.120003,109.389999,104.474091,154700,ATR
176,2018-09-13,108.75,110.900002,108.669998,110.82,105.839828,273900,ATR
177,2018-09-14,110.769997,112.160004,109.790001,111.970001,106.938148,424200,ATR
178,2018-09-17,112.300003,112.309998,110.910004,111.300003,106.298271,564500,ATR
179,2018-09-18,111.199997,111.790001,109.970001,111.589996,106.575241,202600,ATR
180,2018-09-19,111.669998,111.900002,110.529999,111.129997,106.135902,204300,ATR
181,2018-09-20,111.279999,111.510002,110.190002,110.489998,105.524658,204500,ATR
182,2018-09-21,110.169998,110.849998,109.669998,110.32,105.362312,473200,ATR
183,2018-09-24,110.199997,111.470001,109.989998,110.379997,105.419601,352400,ATR
184,2018-09-25,110.75,110.959999,108.620003,108.760002,103.872421,279000,ATR
185,2018-09-26,108.660004,109.489998,108.370003,108.599998,103.719604,629100,ATR
186,2018-09-27,108.599998,109.190002,108.160004,108.339996,103.471291,255600,ATR
187,2018-09-28,108.209999,108.889999,107.550003,107.739998,102.898254,416900,ATR
188,2018-10-01,108.050003,109.199997,107.370003,107.769997,102.926895,208600,ATR
189,2018-10-02,107.93,108.610001,107.599998,108.150002,103.289833,210300,ATR
190,2018-10-03,108.510002,108.629997,107.529999,108.0,103.146568,361200,ATR
191,2018-10-04,107.790001,107.790001,106.300003,107.089996,102.277466,273300,ATR
192,2018-10-05,107.169998,107.639999,106.959999,107.169998,102.353859,220800,ATR
193,2018-10-08,107.120003,107.849998,106.839996,107.669998,102.83139,164700,ATR
194,2018-10-09,107.389999,107.389999,105.68,105.720001,100.969032,277500,ATR
195,2018-10-10,105.300003,105.769997,102.120003,102.419998,97.817329,456000,ATR
196,2018-10-11,102.370003,103.459999,101.459999,101.57,97.005524,312700,ATR
197,2018-10-12,102.68,103.360001,100.339996,101.650002,97.081932,399100,ATR
198,2018-10-15,101.669998,102.959999,101.050003,102.150002,97.559464,239600,ATR
199,2018-10-16,102.660004,105.769997,102.660004,105.599998,100.854424,231300,ATR
200,2018-10-17,106.089996,106.089996,104.419998,105.019997,100.300484,180900,ATR
201,2018-10-18,104.730003,105.239998,103.830002,104.269997,99.58419,439900,ATR
202,2018-10-19,104.589996,105.209999,104.279999,104.32,99.631943,271800,ATR
203,2018-10-22,104.610001,104.739998,103.050003,103.970001,99.297668,199300,ATR
204,2018-10-23,102.730003,104.57,101.720001,103.68,99.020706,479500,ATR
205,2018-10-24,103.629997,103.82,99.879997,100.080002,95.582489,498300,ATR
206,2018-10-25,100.879997,101.970001,100.510002,101.290001,96.738113,299800,ATR
207,2018-10-26,100.449997,101.050003,99.309998,100.360001,95.849892,423800,ATR
208,2018-10-29,101.32,102.07,99.139999,100.160004,95.658913,271300,ATR
209,2018-10-30,100.040001,101.410004,99.339996,101.370003,97.144272,318600,ATR
210,2018-10-31,102.43,103.07,101.849998,101.959999,97.709679,417100,ATR
211,2018-11-01,102.690002,103.470001,102.389999,103.18,98.87883,392600,ATR
212,2018-11-02,97.050003,105.330002,95.059998,103.800003,99.472977,959300,ATR
213,2018-11-05,103.989998,104.480003,101.25,101.879997,97.633018,481500,ATR
214,2018-11-06,101.639999,104.769997,101.489998,104.099998,99.760468,381300,ATR
215,2018-11-07,104.879997,105.260002,103.339996,105.110001,100.728378,340200,ATR
216,2018-11-08,104.949997,105.769997,104.599998,105.129997,100.747528,368400,ATR
217,2018-11-09,104.959999,105.800003,103.129997,104.290001,99.942558,227100,ATR
218,2018-11-12,104.160004,104.349998,101.580002,101.769997,97.527603,343100,ATR
219,2018-11-13,102.330002,103.459999,101.540001,102.379997,98.112167,225200,ATR
220,2018-11-14,103.040001,103.910004,101.709999,102.080002,97.824677,163200,ATR
221,2018-11-15,101.550003,104.830002,101.209999,104.790001,100.421707,261000,ATR
222,2018-11-16,104.190002,107.150002,104.190002,106.279999,101.849602,235400,ATR
223,2018-11-19,106.199997,106.650002,104.709999,105.18,100.795433,192700,ATR
224,2018-11-20,104.620003,105.43,103.370003,104.309998,99.961723,246800,ATR
225,2018-11-21,104.68,105.190002,103.150002,103.5,99.185486,221600,ATR
226,2018-11-23,103.0,104.419998,102.980003,103.900002,99.568825,75400,ATR
227,2018-11-26,104.720001,104.989998,102.949997,103.690002,99.367569,231700,ATR
228,2018-11-27,103.300003,103.32,102.089996,102.300003,98.035515,213400,ATR
229,2018-11-28,102.800003,104.07,101.68,104.029999,99.693398,327800,ATR
230,2018-11-29,103.720001,104.93,103.690002,103.849998,99.520889,238400,ATR
231,2018-11-30,103.660004,104.550003,103.25,104.050003,99.712555,330400,ATR
232,2018-12-03,105.230003,105.510002,102.449997,104.459999,100.105453,292000,ATR
233,2018-12-04,104.860001,104.860001,102.830002,102.940002,98.648834,273100,ATR
234,2018-12-06,102.0,102.0,98.349998,101.629997,97.393433,302900,ATR
235,2018-12-07,100.889999,102.849998,99.099998,99.769997,95.610962,226100,ATR
236,2018-12-10,99.43,99.860001,98.220001,99.110001,94.978485,161100,ATR
237,2018-12-11,100.099998,101.019997,98.279999,98.669998,94.556824,192600,ATR
238,2018-12-12,100.099998,100.940002,99.75,99.93,95.764313,240900,ATR
239,2018-12-13,100.419998,101.269997,99.510002,100.32,96.138062,167800,ATR
240,2018-12-14,100.040001,100.959999,99.129997,100.339996,96.157204,187100,ATR
241,2018-12-17,99.839996,100.650002,98.040001,98.639999,94.528084,313900,ATR
242,2018-12-18,99.43,100.269997,97.269997,97.940002,93.857269,231000,ATR
243,2018-12-19,98.279999,98.839996,95.269997,95.589996,91.605209,268300,ATR
244,2018-12-20,95.510002,96.150002,93.669998,95.010002,91.0494,248100,ATR
245,2018-12-21,94.760002,96.610001,93.510002,93.550003,89.650261,588800,ATR
246,2018-12-24,92.860001,92.860001,89.669998,89.699997,85.960754,168300,ATR
247,2018-12-26,89.720001,92.010002,89.720001,91.769997,87.944466,394400,ATR
248,2018-12-27,90.699997,92.480003,90.010002,92.370003,88.519447,467500,ATR
249,2018-12-28,92.599998,93.910004,92.050003,92.699997,88.835686,437400,ATR
250,2018-12-31,92.82,94.07,92.660004,94.07,90.148575,246900,ATR
251,2019-01-02,92.730003,92.730003,89.449997,90.18,86.420753,517500,ATR
252,2019-01-03,88.970001,90.209999,88.260002,89.089996,85.376175,637200,ATR
253,2019-01-04,90.099998,91.900002,89.290001,91.07,87.273636,433600,ATR
254,2019-01-07,90.599998,93.489998,90.580002,91.949997,88.116966,525400,ATR
255,2019-01-08,92.82,94.099998,91.760002,93.519997,89.621513,379600,ATR
256,2019-01-09,93.860001,94.199997,93.209999,93.480003,89.583183,195700,ATR
257,2019-01-10,93.139999,94.82,93.129997,94.580002,90.637329,205800,ATR
258,2019-01-11,94.669998,94.75,93.43,94.730003,90.781075,248200,ATR
259,2019-01-14,94.279999,94.849998,93.739998,93.959999,90.043159,210500,ATR
260,2019-01-15,93.970001,95.400002,93.900002,94.809998,90.857719,213900,ATR
261,2019-01-16,94.82,95.349998,94.389999,94.709999,90.761909,187100,ATR
262,2019-01-17,94.389999,96.169998,94.379997,95.93,91.931046,265500,ATR
263,2019-01-18,96.099998,97.970001,95.879997,97.690002,93.617683,237400,ATR
264,2019-01-22,97.419998,98.25,95.120003,96.440002,92.419777,304000,ATR
265,2019-01-23,96.699997,97.769997,96.25,97.379997,93.320602,266300,ATR
266,2019-01-24,97.25,98.059998,96.709999,97.129997,93.081032,135300,ATR
267,2019-01-25,97.910004,98.349998,97.07,97.389999,93.330177,116300,ATR
268,2019-01-28,97.389999,98.510002,97.279999,97.879997,93.799751,217900,ATR
269,2019-01-29,97.419998,98.419998,97.419998,97.940002,94.184433,161600,ATR
270,2019-01-30,98.099998,98.800003,97.620003,97.959999,94.203659,292500,ATR
271,2019-01-31,98.0,99.279999,97.239998,99.120003,95.31916,346500,ATR
272,2019-02-01,99.330002,99.980003,99.050003,99.550003,95.732681,269600,ATR
273,2019-02-04,99.419998,99.889999,98.519997,99.849998,96.021179,137200,ATR
274,2019-02-05,99.949997,101.129997,99.419998,101.07,97.194405,288000,ATR
275,2019-02-06,100.620003,102.0,100.580002,101.589996,97.69445,206800,ATR
276,2019-02-07,101.129997,102.040001,100.839996,101.949997,98.040657,202100,ATR
277,2019-02-08,101.57,102.309998,100.959999,101.389999,97.502136,184300,ATR
278,2019-02-11,101.879997,102.449997,101.239998,101.699997,97.800247,239100,ATR
279,2019-02-12,102.300003,102.690002,101.739998,102.32,98.396461,230000,ATR
280,2019-02-13,102.709999,103.510002,102.260002,102.800003,98.858078,229700,ATR
281,2019-02-14,102.239998,103.029999,101.559998,101.769997,97.867554,234000,ATR
282,2019-02-15,102.32,102.459999,101.349998,101.940002,98.031044,235800,ATR
283,2019-02-19,101.839996,102.029999,101.260002,101.550003,97.655983,378800,ATR
284,2019-02-20,101.470001,102.660004,101.309998,102.260002,98.338783,282100,ATR
285,2019-02-21,102.300003,104.0,100.639999,103.120003,99.165794,508600,ATR
286,2019-02-22,102.480003,103.550003,101.239998,102.050003,98.136833,303400,ATR
287,2019-02-25,102.269997,102.599998,101.110001,101.559998,97.665619,336100,ATR
288,2019-02-26,101.209999,101.669998,100.93,101.309998,97.425201,302500,ATR
289,2019-02-27,102.019997,102.300003,100.790001,101.410004,97.521362,375300,ATR
290,2019-02-28,101.260002,102.050003,100.970001,101.730003,97.829094,311500,ATR
291,2019-03-01,102.209999,102.209999,100.690002,100.809998,96.944366,245900,ATR
292,2019-03-04,101.25,102.150002,100.629997,101.610001,97.713699,324000,ATR
293,2019-03-05,101.68,102.269997,101.330002,101.470001,97.579063,211000,ATR
294,2019-03-06,101.529999,102.019997,100.43,100.489998,96.63665,127500,ATR
295,2019-03-07,100.199997,100.629997,99.360001,99.879997,96.050026,151600,ATR
296,2019-03-08,99.209999,100.620003,99.209999,100.470001,96.617393,146300,ATR
297,2019-03-11,100.599998,102.07,100.57,102.019997,98.107979,175300,ATR
298,2019-03-12,102.059998,102.910004,102.050003,102.260002,98.338783,176700,ATR
299,2019-03-13,102.5,103.339996,102.089996,102.279999,98.357994,287600,ATR
300,2019-03-14,102.339996,103.040001,101.809998,102.889999,98.944603,169400,ATR
301,2019-03-15,102.919998,103.580002,102.580002,103.050003,99.09848,278600,ATR
302,2019-03-18,103.220001,103.839996,102.849998,103.709999,99.73317,132800,ATR
303,2019-03-19,104.220001,104.589996,103.239998,103.599998,99.62738,188800,ATR
304,2019-03-20,103.419998,104.830002,102.860001,103.949997,99.963966,181300,ATR
305,2019-03-21,103.57,105.68,103.57,105.540001,101.493004,194000,ATR
306,2019-03-22,105.260002,105.260002,103.5,103.830002,99.848564,213200,ATR
307,2019-03-25,103.550003,104.970001,103.019997,104.510002,100.502487,163900,ATR
308,2019-03-26,105.0,106.379997,104.699997,105.440002,101.396828,262300,ATR
309,2019-03-27,105.519997,106.489998,105.129997,105.519997,101.473755,179500,ATR
310,2019-03-28,105.760002,106.389999,105.419998,106.190002,102.118057,129900,ATR
311,2019-03-29,106.099998,106.68,105.470001,106.389999,102.310394,337900,ATR
312,2019-04-01,106.910004,107.82,106.209999,107.709999,103.579788,234000,ATR
313,2019-04-02,107.800003,107.800003,106.660004,107.220001,103.108566,194600,ATR
314,2019-04-03,107.610001,108.080002,107.160004,107.470001,103.348991,201200,ATR
315,2019-04-04,107.68,108.160004,107.290001,108.099998,103.954834,164000,ATR
316,2019-04-05,107.57,108.959999,107.57,108.739998,104.570282,161400,ATR
317,2019-04-08,108.650002,109.269997,107.989998,108.989998,104.810692,149600,ATR
318,2019-04-09,108.389999,108.559998,107.519997,108.160004,104.012535,183400,ATR
319,2019-04-10,108.220001,109.300003,107.949997,109.040001,104.858788,166200,ATR
320,2019-04-11,109.290001,109.860001,108.980003,109.660004,105.455025,228900,ATR
321,2019-04-12,109.949997,110.699997,109.790001,110.309998,106.080078,185900,ATR
322,2019-04-15,110.339996,110.5,109.489998,109.889999,105.676178,190500,ATR
323,2019-04-16,109.809998,109.970001,108.760002,109.620003,105.416542,197600,ATR
324,2019-04-17,109.68,109.75,107.589996,107.699997,103.570168,150500,ATR
325,2019-04-18,107.93,108.379997,107.300003,108.209999,104.0606,214600,ATR
326,2019-04-22,108.25,109.370003,108.25,108.93,104.753014,165800,ATR
327,2019-04-23,109.029999,110.529999,109.029999,110.059998,105.839661,220800,ATR
328,2019-04-24,109.970001,110.860001,109.940002,109.940002,105.724289,152200,ATR
329,2019-04-25,109.209999,109.970001,108.830002,109.449997,105.253067,132400,ATR
330,2019-04-26,109.709999,111.650002,109.699997,111.419998,107.14753,138900,ATR
331,2019-04-29,111.379997,111.720001,110.760002,111.32,107.051361,137600,ATR
332,2019-04-30,110.75,111.809998,109.93,111.239998,107.321487,277600,ATR
333,2019-05-01,112.269997,114.660004,111.550003,112.809998,108.836182,336100,ATR
334,2019-05-02,112.809998,113.120003,111.620003,113.0,109.019485,345200,ATR
335,2019-05-03,113.300003,114.139999,112.730003,113.849998,109.839561,310200,ATR
336,2019-05-06,112.540001,115.519997,112.540001,115.019997,110.96833,263000,ATR
337,2019-05-07,113.980003,114.68,113.139999,113.970001,109.955315,159500,ATR
338,2019-05-08,113.779999,114.480003,113.309998,113.989998,109.974609,169400,ATR
339,2019-05-09,113.379997,113.790001,112.760002,113.0,109.019485,259300,ATR
340,2019-05-10,112.720001,113.709999,112.18,113.599998,109.598351,225100,ATR
341,2019-05-13,111.910004,113.169998,111.290001,112.800003,108.826553,160100,ATR
342,2019-05-14,113.389999,114.360001,112.889999,112.980003,109.000206,132600,ATR
343,2019-05-15,112.760002,113.769997,112.360001,113.239998,109.251038,116500,ATR
344,2019-05-16,113.379997,114.5,113.260002,114.110001,110.090393,218800,ATR
345,2019-05-17,113.489998,114.459999,113.489998,113.779999,109.772011,151800,ATR
346,2019-05-20,113.190002,113.809998,112.830002,113.040001,109.058083,175600,ATR
347,2019-05-21,113.510002,113.889999,113.089996,113.480003,109.48259,156300,ATR
348,2019-05-22,113.769997,113.980003,113.0,113.150002,109.164207,146800,ATR
349,2019-05-23,112.540001,113.690002,112.040001,112.959999,108.980904,119600,ATR
350,2019-05-24,113.290001,113.870003,112.75,112.93,108.951973,117700,ATR
351,2019-05-28,113.040001,113.620003,112.690002,112.900002,108.923035,259200,ATR
352,2019-05-29,112.540001,113.440002,112.279999,112.699997,108.730049,188200,ATR
353,2019-05-30,112.730003,113.629997,112.540001,113.510002,109.51152,128700,ATR
354,2019-05-31,112.529999,113.730003,111.5,113.269997,109.279976,247400,ATR
355,2019-06-03,113.410004,115.0,113.410004,114.029999,110.013222,297400,ATR
356,2019-06-04,114.699997,115.980003,113.68,115.720001,111.643684,483400,ATR
357,2019-06-05,115.900002,117.18,115.410004,117.129997,113.004005,392000,ATR
358,2019-06-06,117.209999,120.389999,117.209999,120.230003,115.994827,319800,ATR
359,2019-06-07,120.0,122.599998,119.919998,121.919998,117.625282,427800,ATR
360,2019-06-10,122.190002,123.279999,121.629997,123.220001,118.879478,253200,ATR
361,2019-06-11,124.0,124.449997,121.209999,122.580002,118.262039,365600,ATR
362,2019-06-12,122.989998,122.989998,121.190002,121.620003,117.335838,273400,ATR
363,2019-06-13,121.5,122.099998,120.309998,120.720001,116.467545,166500,ATR
364,2019-06-14,120.459999,120.510002,119.57,120.089996,115.859741,187300,ATR
365,2019-06-17,120.040001,120.839996,119.790001,120.169998,115.93692,136300,ATR
366,2019-06-18,120.589996,120.699997,119.379997,119.489998,115.280891,208300,ATR
367,2019-06-19,119.629997,120.0,118.82,119.410004,115.203697,340200,ATR
368,2019-06-20,120.889999,121.0,118.279999,119.809998,115.589607,335100,ATR
369,2019-06-21,119.32,119.849998,117.43,119.379997,115.174759,603600,ATR
370,2019-06-24,119.5,119.5,118.480003,118.779999,114.595894,187700,ATR
371,2019-06-25,119.0,121.790001,118.879997,121.059998,116.795586,300700,ATR
372,2019-06-26,121.239998,121.25,119.099998,119.239998,115.039673,236700,ATR
373,2019-06-27,119.389999,121.809998,119.389999,121.550003,117.268318,247700,ATR
374,2019-06-28,121.620003,124.75,121.620003,124.339996,119.960022,831100,ATR
375,2019-07-01,125.0,126.199997,123.120003,124.269997,119.892509,322000,ATR
376,2019-07-02,124.370003,124.709999,123.220001,123.540001,119.188217,402400,ATR
377,2019-07-03,124.0,125.919998,124.0,125.919998,121.48439,188600,ATR
378,2019-07-05,125.209999,125.260002,123.010002,124.610001,120.220512,255300,ATR
379,2019-07-08,125.5,125.5,123.639999,123.989998,119.622353,199600,ATR
380,2019-07-09,123.790001,124.529999,123.790001,124.07,119.699554,235000,ATR
381,2019-07-10,124.629997,125.790001,123.349998,123.580002,119.226814,169900,ATR
382,2019-07-11,123.269997,124.120003,123.010002,124.019997,119.651299,226400,ATR
383,2019-07-12,124.190002,124.190002,123.209999,123.410004,119.062798,241000,ATR
384,2019-07-15,123.150002,123.959999,122.690002,122.919998,118.590057,189600,ATR
385,2019-07-16,123.120003,123.360001,122.300003,123.160004,118.821609,230800,ATR
386,2019-07-17,123.120003,124.43,123.120003,123.529999,119.178581,267300,ATR
387,2019-07-18,123.150002,124.449997,123.029999,124.360001,119.979347,173900,ATR
388,2019-07-19,124.709999,124.949997,123.360001,123.400002,119.053131,226000,ATR
389,2019-07-22,123.510002,123.889999,122.82,123.160004,118.821609,153800,ATR
390,2019-07-23,123.889999,124.709999,123.379997,124.510002,120.124054,183600,ATR
391,2019-07-24,124.010002,124.550003,122.839996,123.290001,118.947006,215300,ATR
392,2019-07-25,123.0,124.279999,122.68,122.919998,118.590057,273700,ATR
393,2019-07-26,123.129997,124.769997,122.93,124.489998,120.104752,198000,ATR
394,2019-07-29,124.449997,125.660004,123.540001,124.940002,120.538902,277400,ATR
395,2019-07-30,123.800003,124.57,122.959999,123.809998,119.793869,221700,ATR
396,2019-07-31,123.489998,123.860001,119.940002,121.019997,117.094383,621400,ATR
397,2019-08-01,120.190002,120.190002,114.839996,117.559998,113.746628,533000,ATR
398,2019-08-02,116.610001,118.339996,115.650002,118.019997,114.191689,316600,ATR
399,2019-08-05,116.440002,119.029999,116.25,117.080002,113.282204,462500,ATR
400,2019-08-06,117.550003,120.809998,117.379997,119.720001,115.836548,356400,ATR
401,2019-08-07,119.099998,122.260002,118.699997,121.660004,117.713623,268700,ATR
402,2019-08-08,122.480003,124.0,121.589996,122.870003,118.884377,374300,ATR
403,2019-08-09,122.739998,123.230003,121.050003,121.080002,117.152451,186400,ATR
404,2019-08-12,121.019997,121.68,119.919998,120.019997,116.126816,135600,ATR
405,2019-08-13,119.779999,121.809998,119.050003,121.220001,117.287895,216300,ATR
406,2019-08-14,120.010002,120.730003,118.989998,119.089996,115.22699,375800,ATR
407,2019-08-15,119.25,120.25,117.949997,118.330002,114.491646,238400,ATR
408,2019-08-16,118.910004,120.739998,117.949997,120.25,116.349365,197800,ATR
409,2019-08-19,121.199997,121.480003,120.0,120.220001,116.32032,206400,ATR
410,2019-08-20,120.099998,120.099998,118.459999,118.879997,115.023796,141800,ATR
411,2019-08-21,119.660004,119.830002,118.889999,119.330002,115.459213,298500,ATR
412,2019-08-22,119.830002,120.720001,119.040001,120.540001,116.629951,227100,ATR
413,2019-08-23,120.550003,121.330002,119.889999,120.260002,116.359047,296100,ATR
414,2019-08-26,120.720001,121.230003,119.910004,120.989998,117.065353,237100,ATR
415,2019-08-27,121.480003,121.830002,120.809998,121.5,117.558823,183000,ATR
416,2019-08-28,121.489998,122.139999,120.629997,121.860001,117.907143,221100,ATR
417,2019-08-29,122.879997,123.440002,121.150002,121.690002,117.742653,184600,ATR
418,2019-08-30,122.379997,123.32,121.230003,122.220001,118.255455,183700,ATR
419,2019-09-03,120.809998,121.080002,118.57,119.650002,115.768829,262000,ATR
420,2019-09-04,120.730003,122.050003,120.190002,121.940002,117.98455,160800,ATR
421,2019-09-05,122.989998,123.209999,120.980003,121.199997,117.268547,230100,ATR
422,2019-09-06,120.959999,121.839996,120.32,120.879997,116.958923,239300,ATR
423,2019-09-09,121.57,121.57,118.769997,119.099998,115.236679,232900,ATR
424,2019-09-10,118.980003,119.32,116.120003,119.110001,115.246346,258200,ATR
425,2019-09-11,118.900002,119.529999,116.720001,118.629997,114.781906,231700,ATR
426,2019-09-12,119.080002,119.699997,117.980003,118.050003,114.220726,163300,ATR
427,2019-09-13,118.550003,118.970001,117.660004,118.400002,114.55938,269900,ATR
428,2019-09-16,117.720001,117.720001,115.870003,116.480003,112.701653,192100,ATR
429,2019-09-17,116.199997,117.860001,116.07,117.010002,113.214455,216700,ATR
430,2019-09-18,116.889999,118.949997,116.559998,118.300003,114.462616,253400,ATR
431,2019-09-19,118.330002,118.949997,117.639999,117.849998,114.027206,304200,ATR
432,2019-09-20,118.139999,119.019997,117.559998,118.050003,114.220726,527900,ATR
433,2019-09-23,117.610001,118.970001,117.610001,118.099998,114.269096,164300,ATR
434,2019-09-24,118.599998,119.489998,118.25,118.510002,114.665802,187100,ATR
435,2019-09-25,118.709999,119.440002,118.669998,119.120003,115.25602,202100,ATR
436,2019-09-26,119.57,119.68,118.519997,118.919998,115.062515,117900,ATR
437,2019-09-27,119.209999,119.309998,118.059998,118.669998,114.82061,149100,ATR
438,2019-09-30,118.949997,119.410004,117.839996,118.449997,114.607758,219700,ATR
439,2019-10-01,119.290001,119.730003,117.5,117.669998,113.853035,143300,ATR
440,2019-10-02,117.0,117.019997,115.059998,115.349998,111.608299,225600,ATR
441,2019-10-03,115.0,115.230003,113.779999,114.989998,111.259979,241100,ATR
442,2019-10-04,115.309998,117.620003,115.089996,117.330002,113.524078,162400,ATR
443,2019-10-07,116.690002,117.449997,116.239998,116.559998,112.779068,216100,ATR
444,2019-10-08,116.010002,117.760002,114.510002,114.779999,111.056793,221900,ATR
445,2019-10-09,115.82,116.889999,115.379997,116.480003,112.701653,134700,ATR
446,2019-10-10,116.480003,117.239998,115.730003,116.309998,112.537163,102400,ATR
447,2019-10-11,116.919998,118.0,116.239998,116.330002,112.556519,213700,ATR
448,2019-10-14,116.32,116.879997,115.739998,115.849998,112.092094,131900,ATR
449,2019-10-15,116.339996,116.639999,115.050003,115.18,111.443825,182500,ATR
450,2019-10-16,115.139999,115.599998,114.400002,115.470001,111.724419,213700,ATR
451,2019-10-17,115.57,117.080002,115.5,116.550003,112.769386,153800,ATR
452,2019-10-18,116.419998,118.0,116.419998,117.779999,113.959473,219100,ATR
453,2019-10-21,118.370003,119.110001,117.800003,117.900002,114.075577,142900,ATR
454,2019-10-22,118.029999,118.050003,116.620003,116.660004,112.875824,85400,ATR
455,2019-10-23,116.529999,117.93,116.5,117.370003,113.562775,104800,ATR
456,2019-10-24,117.449997,118.129997,116.739998,117.339996,113.533752,122500,ATR
457,2019-10-25,117.209999,118.620003,117.209999,117.879997,114.056221,120300,ATR
458,2019-10-28,117.959999,118.800003,117.839996,118.199997,114.36586,134100,ATR
459,2019-10-29,117.449997,119.129997,117.449997,118.510002,115.016106,136600,ATR
460,2019-10-30,118.580002,119.629997,117.769997,119.25,115.734283,148200,ATR
461,2019-10-31,119.040001,119.629997,117.620003,118.150002,114.666718,316000,ATR
462,2019-11-01,113.669998,115.559998,109.540001,110.790001,107.523705,583300,ATR
463,2019-11-04,111.010002,111.760002,108.410004,108.669998,105.466194,553700,ATR
464,2019-11-05,109.209999,110.25,108.43,108.660004,105.45649,385300,ATR
465,2019-11-06,108.669998,109.809998,108.419998,109.489998,106.262024,369800,ATR
466,2019-11-07,109.529999,110.529999,108.910004,109.400002,106.17469,189400,ATR
467,2019-11-08,109.309998,110.93,108.870003,109.0,105.786476,303500,ATR
468,2019-11-11,108.480003,109.760002,108.480003,108.580002,105.378853,181500,ATR
469,2019-11-12,108.639999,109.300003,108.160004,108.220001,105.029465,185400,ATR
470,2019-11-13,108.32,110.07,108.019997,109.620003,106.388199,385400,ATR
471,2019-11-14,109.480003,110.580002,109.480003,110.470001,107.213142,224000,ATR
472,2019-11-15,110.730003,110.730003,109.699997,109.959999,106.71817,307300,ATR
473,2019-11-18,109.919998,110.949997,109.879997,110.339996,107.08696,352100,ATR
474,2019-11-19,110.730003,111.400002,110.449997,110.5,107.242249,258700,ATR
475,2019-11-20,110.120003,111.849998,110.120003,110.699997,107.436356,961400,ATR
476,2019-11-21,111.230003,112.050003,110.18,111.300003,108.018669,244200,ATR
477,2019-11-22,111.650002,111.669998,110.0,110.120003,106.873459,151700,ATR
478,2019-11-25,110.260002,111.059998,110.169998,110.949997,107.67897,264400,ATR
479,2019-11-26,111.519997,112.650002,110.970001,112.559998,109.241524,221900,ATR
480,2019-11-27,112.989998,113.580002,112.629997,112.830002,109.503563,145500,ATR
481,2019-11-29,112.639999,113.209999,111.940002,112.120003,108.814491,89300,ATR
482,2019-12-02,112.519997,112.720001,111.620003,112.010002,108.707748,273300,ATR
483,2019-12-03,111.510002,113.309998,111.139999,112.709999,109.387108,246400,ATR
484,2019-12-04,112.739998,113.480003,111.739998,111.779999,108.484512,284600,ATR
485,2019-12-05,111.889999,112.660004,111.650002,111.949997,108.649498,243700,ATR
486,2019-12-06,112.790001,113.0,111.800003,112.080002,108.775681,322100,ATR
487,2019-12-09,112.309998,112.839996,111.690002,112.629997,109.309464,255000,ATR
488,2019-12-10,112.470001,112.830002,111.339996,111.940002,108.639809,219500,ATR
489,2019-12-11,111.970001,112.769997,111.900002,112.57,109.251228,141100,ATR
490,2019-12-12,112.510002,114.440002,112.510002,114.18,110.813751,407000,ATR
491,2019-12-13,113.980003,115.389999,113.330002,113.970001,110.609955,380400,ATR
492,2019-12-16,114.459999,114.709999,113.300003,114.32,110.949623,194200,ATR
493,2019-12-17,114.129997,114.75,113.059998,113.349998,110.008224,248900,ATR
494,2019-12-18,113.349998,113.370003,112.360001,113.080002,109.746193,204000,ATR
495,2019-12-19,113.160004,113.480003,112.800003,113.260002,109.920883,172100,ATR
496,2019-12-20,113.720001,115.139999,113.720001,114.959999,111.57077,473500,ATR
497,2019-12-23,114.93,115.370003,114.230003,115.370003,111.968681,144300,ATR
498,2019-12-24,115.309998,115.639999,114.68,114.730003,111.347542,63800,ATR
499,2019-12-26,114.739998,114.860001,113.800003,114.82,111.434883,110900,ATR
500,2019-12-27,115.220001,115.349998,114.150002,115.019997,111.62899,87800,ATR
501,2019-12-30,114.940002,115.800003,114.669998,115.760002,112.347176,193000,ATR
502,2019-12-31,115.720001,116.199997,115.019997,115.620003,112.211311,310700,ATR
503,2020-01-02,115.5,116.480003,112.93,113.68,110.328499,362700,ATR
504,2020-01-03,112.809998,114.839996,112.809998,114.040001,110.677887,221500,ATR
505,2020-01-06,113.660004,114.489998,113.559998,114.050003,110.687599,282400,ATR
506,2020-01-07,113.559998,114.010002,112.739998,112.910004,109.581207,234700,ATR
507,2020-01-08,113.080002,114.18,113.080002,113.220001,109.882057,331000,ATR
508,2020-01-09,113.769997,115.059998,113.32,114.660004,111.279617,329100,ATR
509,2020-01-10,114.660004,116.169998,114.57,115.790001,112.376289,196800,ATR
510,2020-01-13,115.489998,116.559998,115.370003,116.199997,112.7742,248500,ATR
511,2020-01-14,116.25,116.32,115.139999,116.129997,112.706268,160800,ATR
512,2020-01-15,116.32,117.230003,115.900002,116.709999,113.269157,241500,ATR
513,2020-01-16,117.209999,118.269997,117.18,118.220001,114.73465,187300,ATR
514,2020-01-17,118.309998,118.610001,117.059998,117.32,113.861198,190600,ATR
515,2020-01-21,116.660004,116.769997,115.349998,115.629997,112.221016,189300,ATR
516,2020-01-22,115.690002,116.43,115.480003,115.669998,112.259834,141800,ATR
517,2020-01-23,115.330002,119.019997,114.769997,117.370003,113.909706,301000,ATR
518,2020-01-24,117.400002,118.160004,116.620003,117.120003,113.667068,213000,ATR
519,2020-01-27,115.540001,117.260002,115.220001,116.489998,113.055656,239100,ATR
520,2020-01-28,116.410004,116.580002,115.57,115.970001,112.899895,178600,ATR
521,2020-01-29,115.910004,117.080002,115.529999,115.940002,112.870689,211200,ATR
522,2020-01-30,115.019997,117.010002,114.330002,116.540001,113.454803,153200,ATR
523,2020-01-31,115.910004,116.389999,115.139999,115.510002,112.45208,300700,ATR
524,2020-02-03,115.610001,117.540001,115.510002,117.239998,114.136276,271300,ATR
525,2020-02-04,117.790001,118.489998,116.199997,116.949997,113.853951,313700,ATR
526,2020-02-05,117.139999,118.290001,116.75,117.870003,114.749588,188100,ATR
527,2020-02-06,118.050003,118.949997,117.459999,117.529999,114.418587,247800,ATR
528,2020-02-07,117.07,117.68,116.220001,116.699997,113.610565,144500,ATR
529,2020-02-10,116.419998,117.099998,115.480003,115.800003,112.73439,142600,ATR
530,2020-02-11,116.019997,116.889999,115.400002,116.050003,112.977768,197600,ATR
531,2020-02-12,116.129997,116.209999,114.300003,114.709999,111.673241,448200,ATR
532,2020-02-13,114.580002,116.550003,113.690002,116.199997,113.123795,200400,ATR
533,2020-02-14,116.599998,117.75,116.169998,116.669998,113.581352,216800,ATR
534,2020-02-18,116.470001,116.629997,115.080002,115.260002,112.208702,271300,ATR
535,2020-02-19,115.370003,116.620003,114.720001,115.010002,111.965317,289200,ATR
536,2020-02-20,114.610001,115.669998,113.739998,114.93,111.887421,378400,ATR
537,2020-02-21,111.519997,114.650002,109.160004,111.980003,109.015518,720600,ATR
538,2020-02-24,110.5,111.209999,109.169998,109.209999,106.318855,447900,ATR
539,2020-02-25,109.220001,109.57,106.709999,106.940002,104.10894,641400,ATR
540,2020-02-26,104.0,106.559998,102.769997,104.68,101.908775,504500,ATR
541,2020-02-27,103.400002,104.760002,101.949997,102.400002,99.68914,670500,ATR
542,2020-02-28,99.730003,102.209999,99.32,101.07,98.394341,690800,ATR
543,2020-03-02,101.620003,103.760002,100.809998,103.580002,100.837891,331800,ATR
544,2020-03-03,103.790001,105.720001,102.199997,102.760002,100.039604,353300,ATR
545,2020-03-04,105.389999,107.629997,104.440002,107.440002,104.595718,294500,ATR
546,2020-03-05,105.339996,105.800003,102.639999,103.980003,101.227318,273800,ATR
547,2020-03-06,101.610001,107.410004,101.330002,107.300003,104.459427,624000,ATR
548,2020-03-09,102.739998,105.0,99.480003,101.449997,98.764275,597100,ATR
549,2020-03-10,103.599998,103.989998,99.389999,103.989998,101.23703,522300,ATR
550,2020-03-11,101.669998,101.669998,97.919998,99.080002,96.457024,705800,ATR
551,2020-03-12,92.480003,96.400002,87.5,94.400002,91.900909,843100,ATR
552,2020-03-13,98.080002,99.440002,91.120003,96.389999,93.838234,596000,ATR
553,2020-03-16,87.400002,94.480003,87.400002,87.879997,85.553528,667400,ATR
554,2020-03-17,89.949997,96.949997,89.480003,96.449997,93.896637,595700,ATR
555,2020-03-18,91.690002,96.980003,90.339996,96.75,94.188713,762000,ATR
556,2020-03-19,96.489998,101.220001,93.589996,98.879997,96.262321,354700,ATR
557,2020-03-20,98.809998,99.980003,89.129997,92.510002,90.060951,727300,ATR
558,2020-03-23,92.059998,93.239998,79.839996,83.93,81.708099,698800,ATR
559,2020-03-24,87.269997,88.32,82.690002,88.059998,85.728752,535600,ATR
560,2020-03-25,89.0,93.660004,86.220001,90.18,87.792633,576200,ATR
561,2020-03-26,90.849998,97.339996,90.220001,96.199997,93.653267,447000,ATR
562,2020-03-27,94.540001,95.839996,92.099998,94.0,91.511513,482000,ATR
563,2020-03-30,94.970001,100.959999,94.370003,100.480003,97.819969,435400,ATR
564,2020-03-31,100.519997,102.75,97.440002,99.540001,96.904846,531000,ATR
565,2020-04-01,97.709999,98.68,95.440002,96.209999,93.662994,296500,ATR
566,2020-04-02,95.809998,97.139999,94.120003,96.150002,93.604599,455700,ATR
567,2020-04-03,94.879997,97.419998,93.360001,94.190002,91.69648,370300,ATR
568,2020-04-06,97.07,101.18,97.07,100.760002,98.092552,503200,ATR
569,2020-04-07,103.550003,103.550003,99.220001,101.120003,98.443031,378000,ATR
570,2020-04-08,102.650002,105.290001,100.639999,104.110001,101.353867,328500,ATR
571,2020-04-09,105.040001,108.029999,104.230003,107.269997,104.430206,399300,ATR
572,2020-04-13,106.989998,107.43,102.300003,102.349998,99.64045,234000,ATR
573,2020-04-14,104.559998,105.370003,103.360001,104.019997,101.266251,239700,ATR
574,2020-04-15,102.279999,104.190002,100.610001,100.93,98.258057,441400,ATR
575,2020-04-16,103.029999,103.029999,99.68,101.849998,99.153687,294000,ATR
576,2020-04-17,103.860001,105.019997,102.400002,102.940002,100.214844,256200,ATR
577,2020-04-20,101.860001,107.940002,101.129997,106.940002,104.10894,856400,ATR
578,2020-04-21,105.849998,106.989998,104.120003,106.120003,103.310646,475500,ATR
579,2020-04-22,106.989998,107.040001,104.120003,106.300003,103.485886,436400,ATR
580,2020-04-23,106.620003,107.32,104.949997,105.019997,102.239761,347600,ATR
581,2020-04-24,105.410004,105.410004,103.089996,104.120003,101.363594,377000,ATR
582,2020-04-27,109.330002,114.099998,106.879997,112.580002,109.59964,457700,ATR
583,2020-04-28,112.599998,114.660004,110.989998,111.18,108.583923,274600,ATR
584,2020-04-29,112.559998,113.629997,109.82,110.080002,107.509605,236600,ATR
585,2020-04-30,108.989998,110.07,106.339996,107.080002,104.579659,730600,ATR
586,2020-05-01,110.559998,110.559998,104.709999,106.139999,103.661613,506200,ATR
587,2020-05-04,105.529999,107.330002,105.080002,106.809998,104.315964,324300,ATR
588,2020-05-05,106.779999,107.629997,105.400002,105.559998,103.095139,332500,ATR
589,2020-05-06,106.769997,107.050003,104.760002,104.860001,102.411499,234000,ATR
590,2020-05-07,105.519997,106.889999,105.139999,105.470001,103.00724,285200,ATR
591,2020-05-08,106.980003,107.989998,106.559998,107.529999,105.01915,257000,ATR
592,2020-05-11,106.660004,107.510002,106.080002,106.309998,103.827629,344000,ATR
593,2020-05-12,106.43,106.43,103.849998,103.949997,101.522743,233300,ATR
594,2020-05-13,103.389999,103.389999,101.650002,102.419998,100.028458,267100,ATR
595,2020-05-14,101.010002,102.620003,99.110001,102.459999,100.067543,246200,ATR
596,2020-05-15,101.470001,101.699997,100.050003,101.5,99.129951,476400,ATR
597,2020-05-18,104.07,105.150002,102.949997,104.150002,101.718086,304500,ATR
598,2020-05-19,103.790001,105.75,103.160004,103.730003,101.307884,214700,ATR
599,2020-05-20,104.449997,105.519997,104.080002,104.410004,101.972,146200,ATR
600,2020-05-21,104.440002,105.709999,104.440002,105.089996,102.636116,233900,ATR
601,2020-05-22,104.970001,105.25,103.709999,105.099998,102.645882,151200,ATR
602,2020-05-26,107.339996,110.190002,106.779999,109.550003,106.991982,332200,ATR
603,2020-05-27,111.07,112.650002,110.349998,112.550003,109.921928,290400,ATR
604,2020-05-28,113.330002,113.330002,110.940002,111.599998,108.994118,233600,ATR
605,2020-05-29,111.099998,111.529999,109.709999,111.389999,108.789017,215300,ATR
606,2020-06-01,111.279999,111.879997,110.599998,111.419998,108.818321,277000,ATR
607,2020-06-02,111.75,112.470001,110.940002,112.07,109.453148,224900,ATR
608,2020-06-03,112.699997,114.099998,112.699997,113.279999,110.634888,196600,ATR
609,2020-06-04,113.5,113.5,111.019997,112.139999,109.521507,182500,ATR
610,2020-06-05,113.800003,114.279999,112.910004,113.400002,110.75209,235500,ATR
611,2020-06-08,112.82,114.0,112.290001,113.580002,110.927879,244700,ATR
612,2020-06-09,112.779999,113.449997,111.910004,112.470001,109.843796,292100,ATR
613,2020-06-10,113.0,113.0,110.82,111.639999,109.033173,366600,ATR
614,2020-06-11,110.0,110.610001,104.209999,104.25,101.815735,376900,ATR
615,2020-06-12,106.690002,107.529999,103.080002,105.360001,102.899811,247300,ATR
616,2020-06-15,103.440002,106.540001,103.07,105.410004,102.948647,235900,ATR
617,2020-06-16,108.300003,109.089996,106.860001,107.389999,104.882423,252600,ATR
618,2020-06-17,108.190002,108.650002,106.370003,106.910004,104.413628,208800,ATR
619,2020-06-18,106.279999,107.970001,105.970001,106.989998,104.49176,217800,ATR
620,2020-06-19,107.209999,107.989998,106.099998,107.599998,105.087517,303700,ATR
621,2020-06-22,106.940002,107.669998,105.5,107.550003,105.038689,241900,ATR
622,2020-06-23,108.459999,108.459999,106.919998,107.440002,104.931259,228300,ATR
623,2020-06-24,106.580002,107.519997,105.849998,105.940002,103.466278,433900,ATR
624,2020-06-25,105.410004,107.629997,103.779999,107.599998,105.087517,263600,ATR
625,2020-06-26,107.120003,108.690002,106.169998,107.720001,105.204727,924200,ATR
626,2020-06-29,108.239998,110.190002,107.889999,109.25,106.69899,189300,ATR
627,2020-06-30,109.129997,112.279999,109.129997,111.980003,109.365234,421800,ATR
628,2020-07-01,111.910004,112.669998,110.949997,112.480003,109.853569,247900,ATR
629,2020-07-02,113.440002,115.010002,113.440002,114.970001,112.285431,271400,ATR
630,2020-07-06,115.989998,116.660004,114.18,115.260002,112.568657,330900,ATR
631,2020-07-07,114.639999,116.0,114.18,115.150002,112.46122,346500,ATR
632,2020-07-08,114.790001,115.75,112.589996,112.93,110.293053,205900,ATR
633,2020-07-09,113.160004,114.139999,111.410004,113.760002,111.103676,307200,ATR
634,2020-07-10,114.169998,115.169998,112.400002,114.949997,112.265884,244500,ATR
635,2020-07-13,114.959999,116.269997,113.269997,113.43,110.781387,289000,ATR
636,2020-07-14,113.760002,116.5,113.690002,116.309998,113.594124,193600,ATR
637,2020-07-15,117.440002,118.290001,116.540001,117.900002,115.147003,326900,ATR
638,2020-07-16,118.040001,118.489998,116.800003,117.239998,114.502419,252900,ATR
639,2020-07-17,118.0,119.709999,117.339996,119.400002,116.611984,249000,ATR
640,2020-07-20,119.400002,119.75,118.269997,119.290001,116.504555,183200,ATR
641,2020-07-21,119.580002,119.870003,117.669998,118.18,115.420471,394300,ATR
642,2020-07-22,118.25,118.980003,117.410004,118.5,115.733002,414600,ATR
643,2020-07-23,118.389999,119.230003,118.089996,118.440002,115.674393,286700,ATR
644,2020-07-24,119.0,119.790001,118.379997,118.849998,116.074814,244700,ATR
645,2020-07-27,118.830002,120.449997,118.5,119.849998,117.051476,281800,ATR
646,2020-07-28,119.809998,119.809998,117.779999,118.050003,115.640869,208600,ATR
647,2020-07-29,118.720001,119.410004,117.330002,118.809998,116.385345,251200,ATR
648,2020-07-30,117.75,118.910004,116.699997,117.910004,115.503716,359800,ATR
649,2020-07-31,115.0,117.900002,111.220001,115.199997,112.849022,668100,ATR
650,2020-08-03,116.849998,119.68,114.849998,118.660004,116.238419,292900,ATR
651,2020-08-04,118.949997,120.18,118.220001,118.620003,116.199226,233100,ATR
652,2020-08-05,119.559998,120.669998,118.220001,118.360001,115.944542,164700,ATR
653,2020-08-06,118.82,120.110001,116.68,117.660004,115.258827,246500,ATR
654,2020-08-07,117.07,119.370003,116.779999,119.25,116.816376,202300,ATR
655,2020-08-10,119.580002,119.580002,116.900002,117.0,114.612297,204700,ATR
656,2020-08-11,118.019997,119.349998,116.529999,116.739998,114.35759,214100,ATR
657,2020-08-12,116.919998,118.57,116.75,118.089996,115.680046,171800,ATR
658,2020-08-13,117.239998,119.470001,117.239998,118.519997,116.10128,213800,ATR
659,2020-08-14,117.879997,119.639999,117.699997,118.489998,116.071884,134600,ATR
660,2020-08-17,119.139999,119.919998,118.010002,118.25,115.836777,160500,ATR
661,2020-08-18,117.910004,118.639999,116.769997,117.879997,115.474327,171500,ATR
662,2020-08-19,118.699997,119.370003,117.32,117.690002,115.288216,145600,ATR
663,2020-08-20,117.059998,118.129997,116.599998,117.550003,115.15107,159400,ATR
664,2020-08-21,117.120003,118.349998,116.400002,117.800003,115.395958,199200,ATR
665,2020-08-24,118.199997,119.760002,118.199997,119.110001,116.679237,224000,ATR
666,2020-08-25,119.540001,119.540001,117.93,118.129997,115.719231,114400,ATR
667,2020-08-26,117.989998,119.0,117.559998,118.599998,116.179642,120000,ATR
668,2020-08-27,118.629997,120.620003,118.5,120.050003,117.600052,209800,ATR
669,2020-08-28,119.699997,119.699997,118.0,118.129997,115.719231,295200,ATR
670,2020-08-31,118.580002,119.160004,117.779999,118.389999,115.973923,182500,ATR
671,2020-09-01,117.940002,119.639999,117.940002,119.5,117.061279,133900,ATR
672,2020-09-02,119.75,122.440002,118.970001,122.260002,119.764946,153800,ATR
673,2020-09-03,122.279999,122.279999,118.5,119.169998,116.737999,227200,ATR
674,2020-09-04,120.040001,120.300003,116.489998,118.720001,116.297195,224200,ATR
675,2020-09-08,118.129997,118.129997,116.040001,116.059998,113.691475,164600,ATR
676,2020-09-09,116.639999,118.629997,116.639999,117.889999,115.484123,154000,ATR
677,2020-09-10,118.169998,118.910004,116.709999,117.190002,114.798416,253500,ATR
678,2020-09-11,117.879997,118.709999,117.129997,118.360001,115.944542,124600,ATR
679,2020-09-14,119.370003,120.059998,118.470001,119.080002,116.649857,129000,ATR
680,2020-09-15,119.440002,119.800003,118.120003,118.330002,115.915154,125600,ATR
681,2020-09-16,119.580002,119.580002,117.57,117.769997,115.36657,232000,ATR
682,2020-09-17,116.5,117.239998,115.080002,115.959999,113.593513,354500,ATR
683,2020-09-18,116.580002,116.75,114.230003,115.040001,112.692291,555700,ATR
684,2020-09-21,113.599998,114.040001,111.82,113.449997,111.134735,251500,ATR
685,2020-09-22,113.970001,114.669998,113.559998,114.330002,111.996788,292400,ATR
686,2020-09-23,114.199997,114.529999,111.709999,112.139999,109.851479,172300,ATR
687,2020-09-24,111.900002,113.169998,111.160004,112.260002,109.969025,274300,ATR
688,2020-09-25,111.459999,112.580002,111.459999,112.099998,109.812294,254100,ATR
689,2020-09-28,113.169998,114.220001,112.040001,112.360001,110.066978,230000,ATR
690,2020-09-29,112.059998,113.349998,111.75,112.620003,110.321686,230000,ATR
691,2020-09-30,113.269997,114.059998,112.5,113.199997,110.889847,200500,ATR
692,2020-10-01,113.449997,114.970001,113.139999,113.699997,111.379631,166000,ATR
693,2020-10-02,112.309998,114.18,112.309998,112.849998,110.546982,166800,ATR
694,2020-10-05,113.360001,114.93,113.209999,114.550003,112.21228,151300,ATR
695,2020-10-06,115.010002,115.900002,113.919998,114.559998,112.222076,224000,ATR
696,2020-10-07,115.089996,116.169998,114.5,114.980003,112.633522,173200,ATR
697,2020-10-08,115.800003,116.790001,115.519997,116.519997,114.142082,138000,ATR
698,2020-10-09,118.120003,118.389999,116.190002,116.809998,114.426163,148700,ATR
699,2020-10-12,117.050003,118.830002,116.699997,118.040001,115.631073,138100,ATR
700,2020-10-13,117.730003,118.910004,117.25,117.559998,115.160866,159000,ATR
701,2020-10-14,117.5,118.029999,116.040001,116.440002,114.063721,98900,ATR
702,2020-10-15,114.720001,116.589996,114.220001,116.339996,113.965759,116900,ATR
703,2020-10-16,116.709999,117.230003,116.190002,116.349998,113.975555,97700,ATR
704,2020-10-19,116.639999,116.639999,114.580002,115.150002,112.800049,113700,ATR
705,2020-10-20,116.050003,117.559998,115.220001,116.959999,114.573105,192600,ATR
706,2020-10-21,117.269997,118.760002,117.269997,117.739998,115.337189,133700,ATR
707,2020-10-22,117.889999,118.480003,116.75,118.309998,115.895554,164100,ATR
708,2020-10-23,118.75,118.970001,117.480003,118.349998,115.934731,105600,ATR
709,2020-10-26,117.349998,117.489998,115.93,117.459999,115.062904,114100,ATR
710,2020-10-27,117.169998,117.190002,115.610001,115.650002,113.63813,125000,ATR
711,2020-10-28,114.110001,114.610001,112.25,112.339996,110.385704,170500,ATR
712,2020-10-29,112.300003,113.099998,110.339996,112.940002,110.975266,279100,ATR
713,2020-10-30,116.25,116.760002,113.540001,114.089996,112.10527,377900,ATR
714,2020-11-02,115.169998,118.290001,114.669998,118.190002,116.133949,215600,ATR
715,2020-11-03,118.5,121.459999,118.330002,119.559998,117.480095,242400,ATR
716,2020-11-04,120.0,120.019997,118.099998,119.050003,116.978996,150600,ATR
717,2020-11-05,120.610001,123.099998,120.43,122.910004,120.771828,185500,ATR
718,2020-11-06,123.589996,124.610001,122.470001,123.599998,121.449821,220300,ATR
719,2020-11-09,127.620003,128.860001,122.110001,123.169998,121.027313,336500,ATR
720,2020-11-10,123.389999,128.800003,122.949997,127.610001,125.390068,326100,ATR
721,2020-11-11,127.75,127.75,124.370003,125.269997,123.090775,194700,ATR
722,2020-11-12,124.239998,125.209999,122.589996,124.269997,122.10817,126300,ATR
723,2020-11-13,124.849998,126.0,124.099998,125.07,122.894257,126300,ATR
724,2020-11-16,126.279999,127.0,125.57,126.860001,124.653114,207400,ATR
725,2020-11-17,126.260002,128.100006,125.699997,127.360001,125.144417,191200,ATR
726,2020-11-18,127.43,127.860001,125.970001,126.370003,124.171646,173100,ATR
727,2020-11-19,126.699997,127.620003,126.0,127.230003,125.016685,213900,ATR
728,2020-11-20,127.510002,128.360001,127.190002,127.809998,125.586586,237300,ATR
729,2020-11-23,128.059998,129.119995,126.400002,126.860001,124.653114,182300,ATR
730,2020-11-24,128.160004,128.470001,126.879997,127.879997,125.655373,237200,ATR
731,2020-11-25,128.479996,128.479996,125.769997,126.290001,124.093033,136100,ATR
732,2020-11-27,126.550003,127.300003,126.080002,127.239998,125.026505,67800,ATR
733,2020-11-30,126.790001,126.93,125.690002,126.32,124.122513,204600,ATR
734,2020-12-01,127.150002,128.580002,126.419998,127.82,125.596413,165800,ATR
735,2020-12-02,127.360001,128.050003,125.720001,126.260002,124.06356,133800,ATR
736,2020-12-03,126.07,127.110001,125.150002,125.870003,123.680336,138700,ATR
737,2020-12-04,125.480003,127.800003,125.480003,127.68,125.458855,144600,ATR
738,2020-12-07,127.989998,128.990005,127.639999,128.630005,126.392349,115000,ATR
739,2020-12-08,128.289993,130.899994,127.940002,129.190002,126.942581,162100,ATR
740,2020-12-09,129.130005,130.179993,128.660004,129.529999,127.276665,144800,ATR
741,2020-12-10,129.470001,131.089996,129.020004,130.470001,128.200302,247100,ATR
742,2020-12-11,129.589996,131.100006,129.589996,130.449997,128.180664,165800,ATR
743,2020-12-14,131.050003,131.990005,128.199997,128.410004,126.176163,205800,ATR
744,2020-12-15,128.559998,130.649994,128.309998,130.259995,127.99395,158200,ATR
745,2020-12-16,130.990005,131.740005,130.199997,131.100006,128.819366,265400,ATR
746,2020-12-17,131.289993,133.690002,131.0,133.139999,130.823853,297700,ATR
747,2020-12-18,134.0,134.669998,133.639999,134.100006,131.767166,656300,ATR
748,2020-12-21,132.779999,135.0,131.5,134.889999,132.543411,211700,ATR
749,2020-12-22,134.649994,136.220001,134.009995,134.5,132.160217,257300,ATR
750,2020-12-23,134.520004,135.75,134.449997,134.529999,132.189682,191600,ATR
751,2020-12-24,135.0,136.369995,134.649994,135.699997,133.33934,84200,ATR
752,2020-12-28,136.190002,137.139999,135.059998,135.679993,133.319672,100400,ATR
753,2020-12-29,136.270004,136.75,134.839996,135.309998,132.9561,94400,ATR
754,2020-12-30,135.910004,137.360001,135.460007,136.389999,134.017334,99000,ATR
755,2020-12-31,136.770004,137.320007,135.610001,136.889999,134.508621,169800,ATR
756,2021-01-04,135.919998,137.970001,133.679993,134.0,131.6689,315700,ATR
757,2021-01-05,134.130005,135.289993,133.539993,133.699997,131.374115,260500,ATR
758,2021-01-06,134.220001,137.970001,134.220001,137.720001,135.324203,289300,ATR
759,2021-01-07,137.520004,140.0,136.509995,139.699997,137.26973,192400,ATR
760,2021-01-08,139.570007,140.619995,137.759995,139.070007,136.650726,140600,ATR
761,2021-01-11,139.5,139.869995,138.380005,138.789993,136.375565,115300,ATR
762,2021-01-12,138.809998,139.229996,137.089996,138.149994,135.746704,199200,ATR
763,2021-01-13,137.949997,139.580002,136.139999,138.580002,136.16925,245000,ATR
764,2021-01-14,138.5,140.710007,137.520004,139.449997,137.024109,181200,ATR
765,2021-01-15,139.039993,141.330002,138.369995,138.830002,136.414886,149300,ATR
766,2021-01-19,139.580002,140.619995,137.25,137.259995,134.872192,222300,ATR
767,2021-01-20,137.729996,140.75,137.490005,140.619995,138.173737,254100,ATR
768,2021-01-21,140.270004,141.130005,138.009995,138.110001,135.707413,208300,ATR
769,2021-01-22,137.860001,138.380005,137.110001,138.190002,135.786026,227800,ATR
770,2021-01-25,138.160004,139.919998,137.850006,139.570007,137.142014,187100,ATR
771,2021-01-26,139.429993,140.0,137.080002,138.850006,136.787369,125900,ATR
772,2021-01-27,137.529999,137.529999,133.149994,133.25,131.270538,186900,ATR
773,2021-01-28,134.080002,135.800003,133.610001,135.25,133.240829,165800,ATR
774,2021-01-29,134.429993,135.360001,131.820007,132.970001,130.994705,377800,ATR
775,2021-02-01,134.130005,134.389999,131.809998,134.089996,132.098083,184700,ATR
776,2021-02-02,135.050003,138.119995,134.740005,136.940002,134.905731,193000,ATR
777,2021-02-03,136.160004,137.300003,135.389999,136.559998,134.531357,134700,ATR
778,2021-02-04,136.119995,138.399994,135.0,138.0,135.949982,251100,ATR
779,2021-02-05,139.460007,140.729996,138.720001,140.660004,138.57045,177500,ATR
780,2021-02-08,141.25,142.0,140.529999,141.979996,139.87085,171200,ATR
781,2021-02-09,141.960007,142.889999,141.220001,142.169998,140.058044,183000,ATR
782,2021-02-10,143.0,144.100006,142.509995,143.25,141.121979,151100,ATR
783,2021-02-11,143.5,144.320007,142.059998,142.970001,140.846146,195800,ATR
784,2021-02-12,142.380005,144.759995,142.380005,144.630005,142.481491,105300,ATR
785,2021-02-16,144.610001,144.720001,142.899994,143.600006,141.466797,175300,ATR
786,2021-02-17,143.75,144.179993,142.449997,143.210007,141.082596,200700,ATR
787,2021-02-18,142.619995,143.179993,140.990005,140.990005,138.895554,208700,ATR
788,2021-02-19,138.570007,138.570007,131.610001,132.240005,130.275574,492900,ATR
789,2021-02-22,131.25,131.369995,127.5,129.100006,127.182205,347100,ATR
790,2021-02-23,127.82,128.720001,126.779999,128.279999,126.374374,490700,ATR
791,2021-02-24,128.259995,129.039993,127.800003,128.759995,126.847237,213000,ATR
792,2021-02-25,128.770004,130.910004,128.770004,130.300003,128.364365,378600,ATR
793,2021-02-26,131.059998,131.570007,129.559998,130.070007,128.137787,386500,ATR
794,2021-03-01,130.779999,132.0,129.880005,130.600006,128.659897,283000,ATR
795,2021-03-02,130.440002,130.660004,129.470001,130.350006,128.413635,367700,ATR
796,2021-03-03,130.369995,132.179993,129.5,131.050003,129.103226,220400,ATR
797,2021-03-04,130.889999,131.899994,130.130005,130.399994,128.46286,493600,ATR
798,2021-03-05,131.139999,134.139999,130.410004,134.089996,132.098083,204700,ATR
799,2021-03-08,134.830002,138.479996,134.100006,137.710007,135.664291,230600,ATR
800,2021-03-09,138.679993,140.669998,137.679993,137.690002,135.644592,251500,ATR
801,2021-03-10,138.210007,140.119995,137.940002,139.380005,137.309494,150700,ATR
802,2021-03-11,139.190002,140.419998,138.740005,139.380005,137.309494,169100,ATR
803,2021-03-12,140.0,141.240005,139.259995,140.770004,138.678818,219000,ATR
804,2021-03-15,141.779999,143.029999,141.009995,142.130005,140.018616,356200,ATR
805,2021-03-16,141.710007,142.100006,139.330002,140.5,138.412842,280700,ATR
806,2021-03-17,139.910004,141.740005,139.380005,141.279999,139.181259,180900,ATR
807,2021-03-18,141.339996,142.470001,140.940002,141.509995,139.407837,174100,ATR
808,2021-03-19,142.059998,142.330002,139.039993,139.309998,137.240524,615000,ATR
809,2021-03-22,138.970001,141.860001,138.259995,141.589996,139.486664,247700,ATR
810,2021-03-23,140.529999,142.559998,140.160004,140.770004,138.678818,330100,ATR
811,2021-03-24,141.160004,144.330002,141.160004,141.839996,139.732941,300800,ATR
812,2021-03-25,141.399994,143.229996,140.449997,142.470001,140.353577,265600,ATR
813,2021-03-26,143.0,144.820007,142.190002,144.820007,142.668671,286800,ATR
814,2021-03-29,144.240005,145.899994,143.389999,144.770004,142.619415,272200,ATR
815,2021-03-30,144.330002,144.410004,142.600006,143.080002,140.954514,247900,ATR
816,2021-03-31,143.029999,143.470001,141.229996,141.669998,139.565475,408600,ATR
817,2021-04-01,141.990005,143.979996,141.380005,143.869995,141.732788,228200,ATR
818,2021-04-05,144.949997,144.949997,143.339996,144.690002,142.540588,196100,ATR
819,2021-04-06,144.039993,145.990005,143.320007,145.970001,143.801575,206100,ATR
820,2021-04-07,145.279999,145.5,143.380005,143.589996,141.45694,188000,ATR
821,2021-04-08,143.800003,143.960007,142.190002,143.679993,141.545593,158700,ATR
822,2021-04-09,144.419998,145.300003,143.279999,145.199997,143.042999,151400,ATR
823,2021-04-12,144.679993,146.380005,144.679993,146.210007,144.03804,100800,ATR
824,2021-04-13,146.600006,147.009995,145.440002,146.330002,144.156235,160800,ATR
825,2021-04-14,144.5,146.149994,144.5,145.809998,143.643967,185100,ATR
826,2021-04-15,146.919998,147.899994,146.029999,147.199997,145.013306,184800,ATR
827,2021-04-16,149.139999,149.589996,147.570007,148.080002,145.880249,322600,ATR
828,2021-04-19,148.229996,149.789993,147.75,149.710007,147.486023,203900,ATR
829,2021-04-20,147.0,150.75,146.669998,150.419998,148.185486,190300,ATR
830,2021-04-21,150.149994,152.360001,150.149994,151.940002,149.682907,191200,ATR
831,2021-04-22,152.020004,152.020004,149.940002,150.070007,147.840683,278400,ATR
832,2021-04-23,150.289993,151.740005,149.830002,151.449997,149.20018,188100,ATR
833,2021-04-26,151.75,152.179993,150.899994,150.919998,148.678055,193600,ATR
834,2021-04-27,150.100006,151.669998,149.479996,151.639999,149.76445,214900,ATR
835,2021-04-28,151.429993,153.070007,151.050003,151.119995,149.25087,192000,ATR
836,2021-04-29,151.440002,152.149994,150.399994,150.919998,149.05336,226400,ATR
837,2021-04-30,150.0,151.940002,147.899994,150.809998,148.944702,365700,ATR
838,2021-05-03,152.160004,153.199997,151.740005,152.460007,150.574326,212900,ATR
839,2021-05-04,152.889999,156.139999,152.889999,155.020004,153.102646,206800,ATR
840,2021-05-05,155.300003,155.300003,153.389999,154.179993,152.27301,186400,ATR
841,2021-05-06,154.130005,156.630005,153.639999,156.520004,154.584091,240600,ATR
842,2021-05-07,155.550003,157.929993,155.550003,157.559998,155.611221,187100,ATR
843,2021-05-10,157.740005,158.970001,155.389999,155.479996,153.556946,226300,ATR
844,2021-05-11,154.550003,155.660004,153.720001,153.990005,152.085373,299700,ATR
845,2021-05-12,153.610001,154.550003,151.610001,151.610001,149.734818,164100,ATR
846,2021-05-13,151.399994,155.289993,151.339996,154.619995,152.707581,308900,ATR
847,2021-05-14,154.970001,155.289993,153.179993,153.539993,151.640961,174000,ATR
848,2021-05-17,153.110001,154.089996,152.229996,153.110001,151.216263,136800,ATR
849,2021-05-18,153.410004,154.0,150.860001,150.919998,149.05336,172500,ATR
850,2021-05-19,150.0,151.039993,148.600006,149.539993,147.690414,161400,ATR
851,2021-05-20,149.270004,150.610001,149.039993,149.740005,147.887955,123200,ATR
852,2021-05-21,149.929993,150.580002,148.880005,149.630005,147.779312,134900,ATR
853,2021-05-24,150.470001,150.729996,148.960007,149.259995,147.413879,143000,ATR
854,2021-05-25,149.639999,150.119995,147.470001,147.729996,145.902802,199200,ATR
855,2021-05-26,148.5,149.389999,147.169998,147.860001,146.031189,113600,ATR
856,2021-05-27,148.619995,149.149994,146.479996,146.770004,144.954681,172600,ATR
857,2021-05-28,147.289993,147.5,146.419998,147.309998,145.487991,146900,ATR
858,2021-06-01,147.979996,148.809998,146.610001,146.880005,145.063324,173000,ATR
859,2021-06-02,146.850006,147.889999,145.119995,145.660004,143.858414,282800,ATR
860,2021-06-03,145.479996,146.119995,144.740005,145.399994,143.601608,224500,ATR
861,2021-06-04,146.039993,146.259995,144.779999,145.559998,143.759628,151900,ATR
862,2021-06-07,145.529999,146.089996,142.029999,142.520004,140.757248,184800,ATR
863,2021-06-08,142.529999,142.910004,141.119995,142.779999,141.014038,182900,ATR
864,2021-06-09,142.570007,143.210007,141.639999,142.169998,140.411575,174100,ATR
865,2021-06-10,142.389999,145.050003,142.229996,144.990005,143.196716,216100,ATR
866,2021-06-11,145.259995,146.25,144.240005,145.830002,144.026321,152900,ATR
867,2021-06-14,146.0,146.0,143.070007,143.490005,141.715271,223600,ATR
868,2021-06-15,143.539993,144.910004,143.369995,144.330002,142.544846,214200,ATR
869,2021-06-16,144.449997,145.190002,142.440002,142.619995,140.856003,168400,ATR
870,2021-06-17,142.759995,143.600006,139.970001,141.509995,139.759735,157900,ATR
871,2021-06-18,140.75,141.899994,139.910004,140.100006,138.367188,280400,ATR
872,2021-06-21,140.979996,142.199997,140.169998,141.580002,139.828873,229800,ATR
873,2021-06-22,141.889999,142.660004,141.160004,141.630005,139.878265,207400,ATR
874,2021-06-23,141.389999,142.160004,140.100006,140.169998,138.436325,227600,ATR
875,2021-06-24,140.929993,140.929993,139.789993,140.179993,138.446198,142300,ATR
876,2021-06-25,140.179993,141.490005,140.110001,140.919998,139.177032,635000,ATR
877,2021-06-28,141.080002,141.419998,139.729996,140.710007,138.96965,218600,ATR
878,2021-06-29,140.809998,141.970001,140.059998,140.279999,138.544937,151900,ATR
879,2021-06-30,140.320007,141.919998,140.289993,140.839996,139.098022,186500,ATR
880,2021-07-01,141.110001,141.699997,140.899994,141.119995,139.374542,225500,ATR
881,2021-07-02,141.479996,141.940002,140.059998,140.410004,138.673355,121900,ATR
882,2021-07-06,140.399994,140.869995,138.639999,140.050003,138.31781,273400,ATR
883,2021-07-07,139.820007,141.460007,139.820007,141.020004,139.275803,219900,ATR
884,2021-07-08,139.940002,140.600006,139.009995,139.270004,137.547455,154200,ATR
885,2021-07-09,139.850006,141.279999,139.759995,141.179993,139.433807,229800,ATR
886,2021-07-12,140.820007,141.009995,140.050003,140.419998,138.683212,174300,ATR
887,2021-07-13,140.210007,141.210007,138.360001,138.5,136.786972,223600,ATR
888,2021-07-14,138.669998,139.149994,138.009995,138.440002,136.727707,179900,ATR
889,2021-07-15,137.75,139.009995,137.320007,138.559998,136.846222,155500,ATR
890,2021-07-16,139.009995,140.350006,138.399994,139.039993,137.320267,177700,ATR
891,2021-07-19,138.039993,138.929993,136.380005,137.130005,135.433899,293000,ATR
892,2021-07-20,137.300003,139.649994,137.0,137.020004,135.325287,294000,ATR
893,2021-07-21,137.300003,138.009995,135.929993,136.059998,134.377136,158000,ATR
894,2021-07-22,136.330002,136.740005,134.660004,134.669998,133.004333,203600,ATR
895,2021-07-23,134.979996,136.279999,134.289993,136.240005,134.554916,175200,ATR
896,2021-07-26,136.759995,137.130005,135.899994,136.720001,135.028992,191000,ATR
897,2021-07-27,136.110001,138.25,135.389999,136.759995,135.068466,150500,ATR
898,2021-07-28,136.520004,137.820007,136.229996,137.649994,135.947464,165100,ATR
899,2021-07-29,138.720001,140.009995,138.720001,139.050003,137.330154,316000,ATR
900,2021-07-30,136.0,139.509995,128.179993,128.919998,127.325462,842400,ATR
901,2021-08-02,128.440002,130.580002,127.690002,129.910004,128.303207,453600,ATR
902,2021-08-03,129.550003,129.740005,127.669998,128.630005,127.411743,418300,ATR
903,2021-08-04,128.759995,129.399994,126.32,126.769997,125.569351,294500,ATR
904,2021-08-05,127.440002,128.199997,126.639999,127.5,126.292435,158000,ATR
905,2021-08-06,128.080002,129.460007,127.919998,128.429993,127.213623,184600,ATR
906,2021-08-09,128.699997,130.740005,128.619995,130.080002,128.848007,297200,ATR
907,2021-08-10,129.309998,131.210007,128.960007,129.199997,127.976341,200400,ATR
908,2021-08-11,130.190002,132.320007,129.169998,131.630005,130.383331,305900,ATR
909,2021-08-12,132.539993,133.600006,131.910004,132.679993,131.423355,247800,ATR
910,2021-08-13,132.889999,133.889999,132.509995,133.050003,131.789871,174300,ATR
911,2021-08-16,132.589996,133.169998,131.660004,132.880005,131.621475,106300,ATR
912,2021-08-17,132.330002,133.139999,131.600006,133.009995,131.750244,213100,ATR
913,2021-08-18,132.279999,133.100006,132.039993,132.050003,130.799347,110800,ATR
914,2021-08-19,131.440002,132.949997,131.399994,132.410004,131.15593,94000,ATR
915,2021-08-20,132.100006,133.910004,131.929993,133.520004,132.255417,118600,ATR
916,2021-08-23,134.169998,134.550003,132.490005,132.960007,131.700729,111200,ATR
917,2021-08-24,132.949997,133.720001,132.220001,132.960007,131.700729,85700,ATR
918,2021-08-25,133.080002,134.5,132.940002,134.130005,132.85965,116000,ATR
919,2021-08-26,133.600006,133.779999,132.479996,132.660004,131.403564,133600,ATR
920,2021-08-27,133.350006,134.949997,133.300003,134.529999,133.255859,180600,ATR
921,2021-08-30,135.160004,136.229996,135.0,135.229996,133.949234,122300,ATR
922,2021-08-31,135.559998,135.949997,134.220001,134.800003,133.5233,154100,ATR
923,2021-09-01,135.110001,135.5,134.139999,135.009995,133.731308,135800,ATR
924,2021-09-02,135.5,136.220001,134.229996,135.139999,133.860077,165500,ATR
925,2021-09-03,135.279999,136.190002,134.929993,135.149994,133.86998,112700,ATR
926,2021-09-07,134.720001,134.720001,130.929993,131.080002,129.838516,131600,ATR
927,2021-09-08,130.339996,131.350006,130.339996,130.880005,129.640427,325200,ATR
928,2021-09-09,130.410004,131.119995,128.369995,128.630005,127.411743,227700,ATR
929,2021-09-10,128.270004,129.300003,125.82,125.839996,124.648163,341000,ATR
930,2021-09-13,125.459999,126.120003,123.760002,124.760002,123.5784,286000,ATR
931,2021-09-14,125.129997,126.419998,124.220001,124.580002,123.400093,184100,ATR
932,2021-09-15,123.900002,125.43,123.300003,124.629997,123.449608,206600,ATR
933,2021-09-16,124.470001,125.32,122.040001,122.300003,121.141693,176800,ATR
934,2021-09-17,122.199997,122.639999,120.720001,121.230003,120.081833,568400,ATR
935,2021-09-20,119.760002,121.879997,119.540001,121.860001,120.705849,289200,ATR
936,2021-09-21,121.959999,122.32,119.830002,120.059998,118.922905,240600,ATR
937,2021-09-22,120.379997,121.209999,119.440002,120.279999,119.140816,235000,ATR
938,2021-09-23,120.839996,121.660004,120.279999,121.010002,119.863899,162100,ATR
939,2021-09-24,120.660004,121.410004,120.269997,120.360001,119.220062,186300,ATR
940,2021-09-27,120.18,121.129997,119.790001,120.330002,119.190346,206600,ATR
941,2021-09-28,120.370003,120.870003,118.879997,120.029999,118.893181,230800,ATR
942,2021-09-29,120.0,121.290001,120.0,120.379997,119.239868,237600,ATR
943,2021-09-30,120.790001,121.43,119.300003,119.349998,118.219627,314900,ATR
944,2021-10-01,119.839996,122.32,118.610001,121.580002,120.428505,259800,ATR
945,2021-10-04,121.5,122.650002,120.989998,122.290001,121.131783,241900,ATR
946,2021-10-05,121.879997,122.870003,120.620003,121.660004,120.507759,249200,ATR
947,2021-10-06,121.07,123.239998,120.449997,123.099998,121.934113,240900,ATR
948,2021-10-07,123.279999,126.040001,123.230003,124.260002,123.08313,252700,ATR
949,2021-10-08,124.589996,125.089996,123.760002,124.510002,123.330757,217900,ATR
950,2021-10-11,124.470001,126.209999,124.269997,124.57,123.39019,182800,ATR
951,2021-10-12,124.120003,125.209999,123.849998,124.489998,123.310944,99800,ATR
952,2021-10-13,125.190002,127.57,124.760002,127.389999,126.183487,266400,ATR
953,2021-10-14,127.510002,128.360001,126.879997,128.009995,126.7976,215400,ATR
954,2021-10-15,128.610001,129.25,127.709999,128.220001,127.005623,193200,ATR
955,2021-10-18,127.639999,128.690002,126.910004,127.82,126.609406,221100,ATR
956,2021-10-19,128.139999,128.550003,127.169998,127.550003,126.341965,143300,ATR
957,2021-10-20,127.260002,128.759995,126.93,128.160004,126.94619,180000,ATR
958,2021-10-21,128.039993,129.559998,127.300003,129.070007,127.84758,139700,ATR
959,2021-10-22,128.610001,129.789993,127.68,127.769997,126.559875,131600,ATR
960,2021-10-25,127.959999,128.880005,126.709999,127.790001,126.579697,216400,ATR
961,2021-10-26,127.589996,128.279999,126.510002,126.889999,126.06308,188500,ATR
962,2021-10-27,126.5,127.199997,125.279999,125.32,124.503311,202200,ATR
963,2021-10-28,125.099998,126.339996,125.099998,125.980003,125.159012,218700,ATR
964,2021-10-29,123.419998,125.43,119.900002,120.779999,119.992897,696400,ATR
965,2021-11-01,119.980003,125.669998,119.980003,125.18,124.36422,581800,ATR
966,2021-11-02,125.860001,128.110001,124.5,127.400002,126.569756,275500,ATR
967,2021-11-03,127.489998,128.5,126.169998,128.399994,127.563232,290000,ATR
968,2021-11-04,128.520004,129.779999,128.360001,128.550003,127.712257,326300,ATR
969,2021-11-05,129.5,131.660004,129.130005,131.5,130.643036,335700,ATR
970,2021-11-08,131.949997,132.270004,129.070007,130.639999,129.788635,255000,ATR
971,2021-11-09,130.220001,131.470001,129.75,130.360001,129.510468,170700,ATR
972,2021-11-10,130.660004,131.080002,129.169998,129.580002,128.73555,147000,ATR
973,2021-11-11,129.770004,130.5,128.729996,129.830002,128.983917,131800,ATR
974,2021-11-12,130.429993,131.619995,129.509995,131.490005,130.633102,177500,ATR
975,2021-11-15,132.419998,133.0,130.800003,132.320007,131.457703,190800,ATR
976,2021-11-16,132.259995,135.809998,132.0,134.240005,133.365173,402900,ATR
977,2021-11-17,134.490005,135.199997,132.610001,134.449997,133.573807,267100,ATR
978,2021-11-18,134.139999,134.139999,129.509995,129.639999,128.795151,258800,ATR
979,2021-11-19,129.669998,131.520004,129.479996,130.149994,129.301834,212800,ATR
980,2021-11-22,130.5,131.490005,128.789993,128.800003,127.960632,274500,ATR
981,2021-11-23,128.800003,130.669998,128.5,129.699997,128.854767,155800,ATR
982,2021-11-24,129.339996,130.080002,127.709999,128.179993,127.344666,220400,ATR
983,2021-11-26,126.510002,129.089996,126.339996,126.610001,125.784904,167000,ATR
984,2021-11-29,128.050003,128.300003,125.5,125.870003,125.049728,228100,ATR
985,2021-11-30,124.690002,125.440002,119.32,119.589996,118.810646,593800,ATR
986,2021-12-01,120.669998,122.43,116.669998,116.790001,116.0289,786000,ATR
987,2021-12-02,117.32,120.699997,116.940002,119.650002,118.870262,578300,ATR
988,2021-12-03,119.639999,120.709999,117.629997,118.800003,118.025803,368300,ATR
989,2021-12-06,120.230003,121.220001,118.830002,120.220001,119.436546,615400,ATR
990,2021-12-07,121.199997,121.739998,119.769997,120.279999,119.496155,377900,ATR
991,2021-12-08,120.599998,121.269997,119.459999,120.82,120.032639,210100,ATR
992,2021-12-09,120.220001,121.010002,119.230003,119.529999,118.751045,193600,ATR
993,2021-12-10,120.080002,120.970001,119.489998,119.739998,118.959671,168900,ATR
994,2021-12-13,119.470001,120.620003,118.269997,118.610001,117.837044,217900,ATR
995,2021-12-14,118.0,119.300003,116.790001,116.949997,116.187851,292600,ATR
996,2021-12-15,117.190002,119.07,117.190002,118.370003,117.598602,309800,ATR
997,2021-12-16,119.239998,120.190002,118.260002,118.690002,117.916519,242600,ATR
998,2021-12-17,118.690002,118.75,115.669998,115.889999,115.134766,800100,ATR
999,2021-12-20,114.82,115.970001,112.370003,113.669998,112.92923,291900,ATR
1000,2021-12-21,114.230003,115.889999,113.709999,115.389999,114.638023,301800,ATR
1001,2021-12-22,115.050003,116.279999,114.410004,115.389999,114.638023,379800,ATR
1002,2021-12-23,115.669998,116.559998,115.129997,116.330002,115.571899,223800,ATR
1003,2021-12-27,116.639999,120.029999,116.599998,119.889999,119.108696,352200,ATR
1004,2021-12-28,120.370003,122.099998,120.059998,121.440002,120.648598,438700,ATR
1005,2021-12-29,121.449997,123.5,121.449997,122.099998,121.304291,953000,ATR
1006,2021-12-30,122.5,123.5,121.610001,121.879997,121.085724,237200,ATR
1007,2021-12-31,121.610001,122.879997,121.230003,122.480003,121.681816,226400,ATR
